         Index            Ts             t            HF        Weight            Tr
           [#]          [°C]           [s]          [mW]          [mg]          [°C]
             0   2.91445e+01   0.00000e+00  -7.16407e+00   2.84972e+01   2.50000e+01
             1   2.91224e+01   1.00000e+00  -7.14049e+00   2.84968e+01   2.51667e+01
             2   2.91146e+01   2.00000e+00  -7.04788e+00   2.84963e+01   2.53333e+01
             3   2.91441e+01   3.00000e+00  -6.90331e+00   2.84959e+01   2.55000e+01
             4   2.91852e+01   4.00000e+00  -6.76351e+00   2.84954e+01   2.56667e+01
             5   2.92824e+01   5.00000e+00  -6.66081e+00   2.84950e+01   2.58333e+01
             6   2.93879e+01   6.00000e+00  -6.67486e+00   2.84946e+01   2.60000e+01
             7   2.94782e+01   7.00000e+00  -6.77057e+00   2.84941e+01   2.61667e+01
             8   2.95962e+01   8.00000e+00  -7.03619e+00   2.84937e+01   2.63333e+01
             9   2.97211e+01   9.00000e+00  -7.28923e+00   2.84932e+01   2.65000e+01
            10   2.98425e+01   1.00000e+01  -7.53333e+00   2.84927e+01   2.66667e+01
            11   2.99553e+01   1.10000e+01  -7.76555e+00   2.84922e+01   2.68333e+01
            12   3.00836e+01   1.20000e+01  -7.98197e+00   2.84917e+01   2.70000e+01
            13   3.02172e+01   1.30000e+01  -8.20817e+00   2.84912e+01   2.71667e+01
            14   3.03560e+01   1.40000e+01  -8.42959e+00   2.84908e+01   2.73333e+01
            15   3.04857e+01   1.50000e+01  -8.63385e+00   2.84902e+01   2.75000e+01
            16   3.06175e+01   1.60000e+01  -8.78795e+00   2.84897e+01   2.76667e+01
            17   3.07664e+01   1.70000e+01  -8.95615e+00   2.84891e+01   2.78333e+01
            18   3.09159e+01   1.80000e+01  -9.11410e+00   2.84884e+01   2.80000e+01
            19   3.10542e+01   1.90000e+01  -9.23468e+00   2.84877e+01   2.81667e+01
            20   3.11872e+01   2.00000e+01  -9.32372e+00   2.84867e+01   2.83333e+01
            21   3.13281e+01   2.10000e+01  -9.41950e+00   2.84858e+01   2.85000e+01
            22   3.14708e+01   2.20000e+01  -9.50464e+00   2.84849e+01   2.86667e+01
            23   3.16281e+01   2.30000e+01  -9.58230e+00   2.84839e+01   2.88333e+01
            24   3.17578e+01   2.40000e+01  -9.60308e+00   2.84827e+01   2.90000e+01
            25   3.19029e+01   2.50000e+01  -9.64195e+00   2.84816e+01   2.91667e+01
            26   3.20493e+01   2.60000e+01  -9.67641e+00   2.84805e+01   2.93333e+01
            27   3.22067e+01   2.70000e+01  -9.70699e+00   2.84794e+01   2.95000e+01
            28   3.23447e+01   2.80000e+01  -9.68325e+00   2.84783e+01   2.96667e+01
            29   3.24962e+01   2.90000e+01  -9.67825e+00   2.84773e+01   2.98333e+01
            30   3.26448e+01   3.00000e+01  -9.67821e+00   2.84763e+01   3.00000e+01
            31   3.28033e+01   3.10000e+01  -9.68469e+00   2.84754e+01   3.01667e+01
            32   3.29368e+01   3.20000e+01  -9.67819e+00   2.84746e+01   3.03333e+01
            33   3.30669e+01   3.30000e+01  -9.67587e+00   2.84737e+01   3.05000e+01
            34   3.32276e+01   3.40000e+01  -9.67211e+00   2.84727e+01   3.06667e+01
            35   3.33445e+01   3.50000e+01  -9.66648e+00   2.84718e+01   3.08333e+01
            36   3.35114e+01   3.60000e+01  -9.64774e+00   2.84708e+01   3.10000e+01
            37   3.36492e+01   3.70000e+01  -9.63509e+00   2.84697e+01   3.11667e+01
            38   3.37996e+01   3.80000e+01  -9.62391e+00   2.84685e+01   3.13333e+01
            39   3.39402e+01   3.90000e+01  -9.61203e+00   2.84673e+01   3.15000e+01
            40   3.40839e+01   4.00000e+01  -9.59202e+00   2.84659e+01   3.16667e+01
            41   3.42164e+01   4.10000e+01  -9.57668e+00   2.84645e+01   3.18333e+01
            42   3.43858e+01   4.20000e+01  -9.56203e+00   2.84631e+01   3.20000e+01
            43   3.45061e+01   4.30000e+01  -9.54711e+00   2.84617e+01   3.21667e+01
            44   3.46716e+01   4.40000e+01  -9.52551e+00   2.84602e+01   3.23333e+01
            45   3.47968e+01   4.50000e+01  -9.50864e+00   2.84588e+01   3.25000e+01
            46   3.49333e+01   4.60000e+01  -9.49286e+00   2.84574e+01   3.26667e+01
            47   3.50752e+01   4.70000e+01  -9.47693e+00   2.84561e+01   3.28333e+01
            48   3.52269e+01   4.80000e+01  -9.46034e+00   2.84547e+01   3.30000e+01
            49   3.53700e+01   4.90000e+01  -9.44401e+00   2.84534e+01   3.31667e+01
            50   3.55147e+01   5.00000e+01  -9.42831e+00   2.84520e+01   3.33333e+01
            51   3.56410e+01   5.10000e+01  -9.41313e+00   2.84506e+01   3.35000e+01
            52   3.58013e+01   5.20000e+01  -9.39985e+00   2.84491e+01   3.36667e+01
            53   3.59380e+01   5.30000e+01  -9.38557e+00   2.84476e+01   3.38333e+01
            54   3.60754e+01   5.40000e+01  -9.37086e+00   2.84462e+01   3.40000e+01
            55   3.62373e+01   5.50000e+01  -9.35655e+00   2.84447e+01   3.41667e+01
            56   3.63756e+01   5.60000e+01  -9.34639e+00   2.84432e+01   3.43333e+01
            57   3.65093e+01   5.70000e+01  -9.33501e+00   2.84416e+01   3.45000e+01
            58   3.66718e+01   5.80000e+01  -9.32365e+00   2.84401e+01   3.46667e+01
            59   3.68102e+01   5.90000e+01  -9.31296e+00   2.84385e+01   3.48333e+01
            60   3.69642e+01   6.00000e+01  -9.30631e+00   2.84368e+01   3.50000e+01
            61   3.70984e+01   6.10000e+01  -9.29858e+00   2.84352e+01   3.51667e+01
            62   3.72238e+01   6.20000e+01  -9.29079e+00   2.84335e+01   3.53333e+01
            63   3.73701e+01   6.30000e+01  -9.28282e+00   2.84318e+01   3.55000e+01
            64   3.75244e+01   6.40000e+01  -9.27962e+00   2.84300e+01   3.56667e+01
            65   3.76506e+01   6.50000e+01  -9.27520e+00   2.84283e+01   3.58333e+01
            66   3.77810e+01   6.60000e+01  -9.27104e+00   2.84266e+01   3.60000e+01
            67   3.79423e+01   6.70000e+01  -9.26759e+00   2.84249e+01   3.61667e+01
            68   3.80801e+01   6.80000e+01  -9.26889e+00   2.84231e+01   3.63333e+01
            69   3.82293e+01   6.90000e+01  -9.26755e+00   2.84213e+01   3.65000e+01
            70   3.83823e+01   7.00000e+01  -9.26634e+00   2.84195e+01   3.66667e+01
            71   3.85295e+01   7.10000e+01  -9.26555e+00   2.84177e+01   3.68333e+01
            72   3.86782e+01   7.20000e+01  -9.26752e+00   2.84157e+01   3.70000e+01
            73   3.87981e+01   7.30000e+01  -9.26901e+00   2.84138e+01   3.71667e+01
            74   3.89580e+01   7.40000e+01  -9.27127e+00   2.84119e+01   3.73333e+01
            75   3.90983e+01   7.50000e+01  -9.27385e+00   2.84100e+01   3.75000e+01
            76   3.92654e+01   7.60000e+01  -9.28121e+00   2.84079e+01   3.76667e+01
            77   3.94050e+01   7.70000e+01  -9.28707e+00   2.84060e+01   3.78333e+01
            78   3.95281e+01   7.80000e+01  -9.29233e+00   2.84040e+01   3.80000e+01
            79   3.96815e+01   7.90000e+01  -9.29729e+00   2.84020e+01   3.81667e+01
            80   3.98274e+01   8.00000e+01  -9.30678e+00   2.83999e+01   3.83333e+01
            81   3.99734e+01   8.10000e+01  -9.31481e+00   2.83978e+01   3.85000e+01
            82   4.01124e+01   8.20000e+01  -9.32226e+00   2.83957e+01   3.86667e+01
            83   4.02582e+01   8.30000e+01  -9.33011e+00   2.83936e+01   3.88333e+01
            84   4.04073e+01   8.40000e+01  -9.34179e+00   2.83913e+01   3.90000e+01
            85   4.05536e+01   8.50000e+01  -9.35151e+00   2.83891e+01   3.91667e+01
            86   4.07149e+01   8.60000e+01  -9.36163e+00   2.83869e+01   3.93333e+01
            87   4.08560e+01   8.70000e+01  -9.37279e+00   2.83847e+01   3.95000e+01
            88   4.10016e+01   8.80000e+01  -9.38510e+00   2.83825e+01   3.96667e+01
            89   4.11562e+01   8.90000e+01  -9.39757e+00   2.83802e+01   3.98333e+01
            90   4.12970e+01   9.00000e+01  -9.40989e+00   2.83779e+01   4.00000e+01
            91   4.14404e+01   9.10000e+01  -9.42146e+00   2.83756e+01   4.01667e+01
            92   4.16007e+01   9.20000e+01  -9.43569e+00   2.83732e+01   4.03333e+01
            93   4.17519e+01   9.30000e+01  -9.44836e+00   2.83709e+01   4.05000e+01
            94   4.18952e+01   9.40000e+01  -9.46119e+00   2.83685e+01   4.06667e+01
            95   4.20347e+01   9.50000e+01  -9.47413e+00   2.83662e+01   4.08333e+01
            96   4.21799e+01   9.60000e+01  -9.49140e+00   2.83638e+01   4.10000e+01
            97   4.23267e+01   9.70000e+01  -9.50648e+00   2.83614e+01   4.11667e+01
            98   4.24856e+01   9.80000e+01  -9.52108e+00   2.83589e+01   4.13333e+01
            99   4.26346e+01   9.90000e+01  -9.53571e+00   2.83565e+01   4.15000e+01
           100   4.27840e+01   1.00000e+02  -9.54830e+00   2.83539e+01   4.16667e+01
           101   4.29399e+01   1.01000e+02  -9.56228e+00   2.83514e+01   4.18333e+01
           102   4.30785e+01   1.02000e+02  -9.57697e+00   2.83489e+01   4.20000e+01
           103   4.32201e+01   1.03000e+02  -9.59203e+00   2.83464e+01   4.21667e+01
           104   4.33769e+01   1.04000e+02  -9.61193e+00   2.83438e+01   4.23333e+01
           105   4.35317e+01   1.05000e+02  -9.62926e+00   2.83412e+01   4.25000e+01
           106   4.36793e+01   1.06000e+02  -9.64594e+00   2.83386e+01   4.26667e+01
           107   4.38401e+01   1.07000e+02  -9.66307e+00   2.83359e+01   4.28333e+01
           108   4.39956e+01   1.08000e+02  -9.68089e+00   2.83332e+01   4.30000e+01
           109   4.41470e+01   1.09000e+02  -9.69809e+00   2.83305e+01   4.31667e+01
           110   4.42942e+01   1.10000e+02  -9.71584e+00   2.83278e+01   4.33333e+01
           111   4.44351e+01   1.11000e+02  -9.73400e+00   2.83251e+01   4.35000e+01
           112   4.45834e+01   1.12000e+02  -9.75443e+00   2.83223e+01   4.36667e+01
           113   4.47415e+01   1.13000e+02  -9.77307e+00   2.83195e+01   4.38333e+01
           114   4.49076e+01   1.14000e+02  -9.79164e+00   2.83166e+01   4.40000e+01
           115   4.50524e+01   1.15000e+02  -9.81037e+00   2.83138e+01   4.41667e+01
           116   4.51908e+01   1.16000e+02  -9.82874e+00   2.83108e+01   4.43333e+01
           117   4.53440e+01   1.17000e+02  -9.84641e+00   2.83080e+01   4.45000e+01
           118   4.54946e+01   1.18000e+02  -9.86357e+00   2.83051e+01   4.46667e+01
           119   4.56426e+01   1.19000e+02  -9.88083e+00   2.83022e+01   4.48333e+01
           120   4.57981e+01   1.20000e+02  -9.89969e+00   2.82992e+01   4.50000e+01
           121   4.59383e+01   1.21000e+02  -9.91883e+00   2.82963e+01   4.51667e+01
           122   4.60959e+01   1.22000e+02  -9.93909e+00   2.82933e+01   4.53333e+01
           123   4.62567e+01   1.23000e+02  -9.95996e+00   2.82902e+01   4.55000e+01
           124   4.64003e+01   1.24000e+02  -9.98103e+00   2.82871e+01   4.56667e+01
           125   4.65384e+01   1.25000e+02  -1.00031e+01   2.82841e+01   4.58333e+01
           126   4.66974e+01   1.26000e+02  -1.00252e+01   2.82811e+01   4.60000e+01
           127   4.68661e+01   1.27000e+02  -1.00469e+01   2.82780e+01   4.61667e+01
           128   4.70191e+01   1.28000e+02  -1.00737e+01   2.82749e+01   4.63333e+01
           129   4.71666e+01   1.29000e+02  -1.00977e+01   2.82718e+01   4.65000e+01
           130   4.73069e+01   1.30000e+02  -1.01204e+01   2.82687e+01   4.66667e+01
           131   4.74783e+01   1.31000e+02  -1.01427e+01   2.82656e+01   4.68333e+01
           132   4.76206e+01   1.32000e+02  -1.01699e+01   2.82622e+01   4.70000e+01
           133   4.77627e+01   1.33000e+02  -1.01946e+01   2.82590e+01   4.71667e+01
           134   4.79190e+01   1.34000e+02  -1.02186e+01   2.82558e+01   4.73333e+01
           135   4.80763e+01   1.35000e+02  -1.02426e+01   2.82525e+01   4.75000e+01
           136   4.82141e+01   1.36000e+02  -1.02674e+01   2.82492e+01   4.76667e+01
           137   4.83656e+01   1.37000e+02  -1.02939e+01   2.82458e+01   4.78333e+01
           138   4.85163e+01   1.38000e+02  -1.03205e+01   2.82425e+01   4.80000e+01
           139   4.86884e+01   1.39000e+02  -1.03466e+01   2.82391e+01   4.81667e+01
           140   4.88305e+01   1.40000e+02  -1.03733e+01   2.82356e+01   4.83333e+01
           141   4.89855e+01   1.41000e+02  -1.03988e+01   2.82322e+01   4.85000e+01
           142   4.91298e+01   1.42000e+02  -1.04240e+01   2.82287e+01   4.86667e+01
           143   4.92853e+01   1.43000e+02  -1.04488e+01   2.82252e+01   4.88333e+01
           144   4.94398e+01   1.44000e+02  -1.04789e+01   2.82217e+01   4.90000e+01
           145   4.95928e+01   1.45000e+02  -1.05064e+01   2.82182e+01   4.91667e+01
           146   4.97377e+01   1.46000e+02  -1.05339e+01   2.82147e+01   4.93333e+01
           147   4.98860e+01   1.47000e+02  -1.05617e+01   2.82111e+01   4.95000e+01
           148   5.00493e+01   1.48000e+02  -1.05880e+01   2.82075e+01   4.96667e+01
           149   5.02070e+01   1.49000e+02  -1.06151e+01   2.82039e+01   4.98333e+01
           150   5.03473e+01   1.50000e+02  -1.06428e+01   2.82002e+01   5.00000e+01
           151   5.05039e+01   1.51000e+02  -1.06702e+01   2.81966e+01   5.01667e+01
           152   5.06459e+01   1.52000e+02  -1.06988e+01   2.81928e+01   5.03333e+01
           153   5.07991e+01   1.53000e+02  -1.07268e+01   2.81891e+01   5.05000e+01
           154   5.09491e+01   1.54000e+02  -1.07540e+01   2.81853e+01   5.06667e+01
           155   5.11144e+01   1.55000e+02  -1.07803e+01   2.81815e+01   5.08333e+01
           156   5.12577e+01   1.56000e+02  -1.08084e+01   2.81777e+01   5.10000e+01
           157   5.14222e+01   1.57000e+02  -1.08371e+01   2.81740e+01   5.11667e+01
           158   5.15745e+01   1.58000e+02  -1.08667e+01   2.81702e+01   5.13333e+01
           159   5.17234e+01   1.59000e+02  -1.08962e+01   2.81664e+01   5.15000e+01
           160   5.18792e+01   1.60000e+02  -1.09236e+01   2.81626e+01   5.16667e+01
           161   5.20392e+01   1.61000e+02  -1.09533e+01   2.81587e+01   5.18333e+01
           162   5.21931e+01   1.62000e+02  -1.09828e+01   2.81548e+01   5.20000e+01
           163   5.23370e+01   1.63000e+02  -1.10122e+01   2.81509e+01   5.21667e+01
           164   5.25089e+01   1.64000e+02  -1.10443e+01   2.81469e+01   5.23333e+01
           165   5.26401e+01   1.65000e+02  -1.10756e+01   2.81429e+01   5.25000e+01
           166   5.28065e+01   1.66000e+02  -1.11066e+01   2.81389e+01   5.26667e+01
           167   5.29475e+01   1.67000e+02  -1.11371e+01   2.81349e+01   5.28333e+01
           168   5.31011e+01   1.68000e+02  -1.11719e+01   2.81308e+01   5.30000e+01
           169   5.32504e+01   1.69000e+02  -1.12050e+01   2.81266e+01   5.31667e+01
           170   5.34102e+01   1.70000e+02  -1.12376e+01   2.81225e+01   5.33333e+01
           171   5.35577e+01   1.71000e+02  -1.12701e+01   2.81183e+01   5.35000e+01
           172   5.37122e+01   1.72000e+02  -1.13024e+01   2.81141e+01   5.36667e+01
           173   5.38662e+01   1.73000e+02  -1.13344e+01   2.81098e+01   5.38333e+01
           174   5.40202e+01   1.74000e+02  -1.13657e+01   2.81056e+01   5.40000e+01
           175   5.41688e+01   1.75000e+02  -1.13966e+01   2.81014e+01   5.41667e+01
           176   5.43286e+01   1.76000e+02  -1.14284e+01   2.80971e+01   5.43333e+01
           177   5.44906e+01   1.77000e+02  -1.14605e+01   2.80928e+01   5.45000e+01
           178   5.46308e+01   1.78000e+02  -1.14922e+01   2.80885e+01   5.46667e+01
           179   5.47910e+01   1.79000e+02  -1.15235e+01   2.80842e+01   5.48333e+01
           180   5.49525e+01   1.80000e+02  -1.15540e+01   2.80797e+01   5.50000e+01
           181   5.51027e+01   1.81000e+02  -1.15855e+01   2.80754e+01   5.51667e+01
           182   5.52494e+01   1.82000e+02  -1.16171e+01   2.80710e+01   5.53333e+01
           183   5.54045e+01   1.83000e+02  -1.16494e+01   2.80666e+01   5.55000e+01
           184   5.55711e+01   1.84000e+02  -1.16812e+01   2.80621e+01   5.56667e+01
           185   5.57216e+01   1.85000e+02  -1.17125e+01   2.80576e+01   5.58333e+01
           186   5.58729e+01   1.86000e+02  -1.17436e+01   2.80530e+01   5.60000e+01
           187   5.60160e+01   1.87000e+02  -1.17756e+01   2.80485e+01   5.61667e+01
           188   5.61756e+01   1.88000e+02  -1.18103e+01   2.80439e+01   5.63333e+01
           189   5.63317e+01   1.89000e+02  -1.18429e+01   2.80393e+01   5.65000e+01
           190   5.64889e+01   1.90000e+02  -1.18750e+01   2.80347e+01   5.66667e+01
           191   5.66478e+01   1.91000e+02  -1.19072e+01   2.80302e+01   5.68333e+01
           192   5.67976e+01   1.92000e+02  -1.19412e+01   2.80256e+01   5.70000e+01
           193   5.69478e+01   1.93000e+02  -1.19744e+01   2.80209e+01   5.71667e+01
           194   5.71038e+01   1.94000e+02  -1.20080e+01   2.80162e+01   5.73333e+01
           195   5.72597e+01   1.95000e+02  -1.20411e+01   2.80115e+01   5.75000e+01
           196   5.74090e+01   1.96000e+02  -1.20758e+01   2.80066e+01   5.76667e+01
           197   5.75687e+01   1.97000e+02  -1.21094e+01   2.80018e+01   5.78333e+01
           198   5.77186e+01   1.98000e+02  -1.21429e+01   2.79970e+01   5.80000e+01
           199   5.78775e+01   1.99000e+02  -1.21761e+01   2.79922e+01   5.81667e+01
           200   5.80226e+01   2.00000e+02  -1.22112e+01   2.79873e+01   5.83333e+01
           201   5.81704e+01   2.01000e+02  -1.22467e+01   2.79824e+01   5.85000e+01
           202   5.83495e+01   2.02000e+02  -1.22821e+01   2.79776e+01   5.86667e+01
           203   5.85020e+01   2.03000e+02  -1.23172e+01   2.79727e+01   5.88333e+01
           204   5.86517e+01   2.04000e+02  -1.23528e+01   2.79677e+01   5.90000e+01
           205   5.87947e+01   2.05000e+02  -1.23876e+01   2.79627e+01   5.91667e+01
           206   5.89516e+01   2.06000e+02  -1.24220e+01   2.79577e+01   5.93333e+01
           207   5.91056e+01   2.07000e+02  -1.24570e+01   2.79526e+01   5.95000e+01
           208   5.92776e+01   2.08000e+02  -1.24920e+01   2.79475e+01   5.96667e+01
           209   5.94271e+01   2.09000e+02  -1.25263e+01   2.79423e+01   5.98333e+01
           210   5.95777e+01   2.10000e+02  -1.25604e+01   2.79373e+01   6.00000e+01
           211   5.97343e+01   2.11000e+02  -1.25945e+01   2.79322e+01   6.01667e+01
           212   5.98883e+01   2.12000e+02  -1.26268e+01   2.79270e+01   6.03333e+01
           213   6.00419e+01   2.13000e+02  -1.26603e+01   2.79219e+01   6.05000e+01
           214   6.02025e+01   2.14000e+02  -1.26932e+01   2.79167e+01   6.06667e+01
           215   6.03417e+01   2.15000e+02  -1.27256e+01   2.79115e+01   6.08333e+01
           216   6.04967e+01   2.16000e+02  -1.27572e+01   2.79061e+01   6.10000e+01
           217   6.06622e+01   2.17000e+02  -1.27901e+01   2.79009e+01   6.11667e+01
           218   6.08384e+01   2.18000e+02  -1.28233e+01   2.78956e+01   6.13333e+01
           219   6.09630e+01   2.19000e+02  -1.28568e+01   2.78903e+01   6.15000e+01
           220   6.11278e+01   2.20000e+02  -1.28903e+01   2.78849e+01   6.16667e+01
           221   6.12783e+01   2.21000e+02  -1.29243e+01   2.78795e+01   6.18333e+01
           222   6.14281e+01   2.22000e+02  -1.29578e+01   2.78741e+01   6.20000e+01
           223   6.15903e+01   2.23000e+02  -1.29911e+01   2.78687e+01   6.21667e+01
           224   6.17548e+01   2.24000e+02  -1.30251e+01   2.78632e+01   6.23333e+01
           225   6.19025e+01   2.25000e+02  -1.30598e+01   2.78577e+01   6.25000e+01
           226   6.20449e+01   2.26000e+02  -1.30952e+01   2.78522e+01   6.26667e+01
           227   6.22038e+01   2.27000e+02  -1.31305e+01   2.78466e+01   6.28333e+01
           228   6.23638e+01   2.28000e+02  -1.31673e+01   2.78411e+01   6.30000e+01
           229   6.25273e+01   2.29000e+02  -1.32027e+01   2.78355e+01   6.31667e+01
           230   6.26716e+01   2.30000e+02  -1.32384e+01   2.78300e+01   6.33333e+01
           231   6.28278e+01   2.31000e+02  -1.32740e+01   2.78244e+01   6.35000e+01
           232   6.30007e+01   2.32000e+02  -1.33085e+01   2.78188e+01   6.36667e+01
